!Titan WDBT Model
!           Planck TB for Bandwidth (MHz)
!Freq(GHz)  3936     1968     984      492
    60.00   90.137   90.138   90.139   90.140
    60.10   90.125   90.126   90.127   90.128
    60.20   90.113   90.114   90.115   90.115
    60.30   90.100   90.102   90.102   90.103
    60.40   90.088   90.090   90.090   90.090
    60.50   90.076   90.077   90.078   90.077
    60.60   90.063   90.065   90.065   90.065
    60.70   90.051   90.053   90.053   90.052
    60.80   90.038   90.040   90.040   90.040
    60.90   90.026   90.028   90.028   90.028
    61.00   90.014   90.015   90.015   90.016
    61.10   90.001   90.003   90.003   90.003
    61.20   89.989   89.990   89.991   89.991
    61.30   89.976   89.978   89.978   89.979
    61.40   89.964   89.965   89.966   89.966
    61.50   89.951   89.953   89.953   89.953
    61.60   89.939   89.940   89.941   89.941
    61.70   89.926   89.927   89.928   89.928
    61.80   89.914   89.915   89.915   89.915
    61.90   89.901   89.902   89.902   89.902
    62.00   89.888   89.889   89.889   89.890
    62.10   89.876   89.876   89.877   89.877
    62.20   89.863   89.864   89.864   89.864
    62.30   89.850   89.851   89.851   89.851
    62.40   89.838   89.838   89.838   89.838
    62.50   89.825   89.825   89.825   89.825
    62.60   89.812   89.813   89.812   89.812
    62.70   89.800   89.800   89.800   89.800
    62.80   89.787   89.787   89.787   89.787
    62.90   89.774   89.774   89.774   89.774
    63.00   89.761   89.762   89.761   89.761
    63.10   89.748   89.749   89.749   89.749
    63.20   89.735   89.736   89.736   89.736
    63.30   89.723   89.723   89.723   89.723
    63.40   89.710   89.710   89.711   89.711
    63.50   89.697   89.697   89.698   89.698
    63.60   89.684   89.685   89.685   89.685
    63.70   89.671   89.672   89.672   89.672
    63.80   89.658   89.659   89.659   89.660
    63.90   89.645   89.646   89.646   89.647
    64.00   89.632   89.633   89.633   89.634
    64.10   89.619   89.620   89.620   89.620
    64.20   89.606   89.607   89.608   89.607
    64.30   89.593   89.594   89.594   89.594
    64.40   89.580   89.581   89.581   89.581
    64.50   89.567   89.568   89.568   89.568
    64.60   89.554   89.555   89.555   89.555
    64.70   89.541   89.542   89.542   89.542
    64.80   89.528   89.529   89.529   89.529
    64.90   89.515   89.516   89.516   89.516
    65.00   89.502   89.502   89.503   89.503
    65.10   89.488   89.489   89.489   89.489
    65.20   89.475   89.476   89.476   89.476
    65.30   89.462   89.463   89.463   89.463
    65.40   89.449   89.450   89.450   89.450
    65.50   89.436   89.436   89.436   89.436
    65.60   89.423   89.423   89.423   89.423
    65.70   89.410   89.410   89.410   89.410
    65.80   89.396   89.397   89.397   89.397
    65.90   89.383   89.383   89.383   89.383
    66.00   89.370   89.370   89.370   89.370
    66.10   89.357   89.357   89.357   89.357
    66.20   89.344   89.344   89.344   89.344
    66.30   89.330   89.330   89.330   89.330
    66.40   89.317   89.317   89.317   89.317
    66.50   89.303   89.304   89.304   89.304
    66.60   89.290   89.291   89.291   89.291
    66.70   89.277   89.277   89.278   89.278
    66.80   89.263   89.264   89.264   89.264
    66.90   89.250   89.251   89.251   89.251
    67.00   89.237   89.237   89.238   89.238
    67.10   89.224   89.224   89.224   89.225
    67.20   89.210   89.211   89.211   89.211
    67.30   89.197   89.197   89.198   89.198
    67.40   89.183   89.184   89.184   89.184
    67.50   89.170   89.171   89.171   89.171
    67.60   89.157   89.157   89.157   89.157
    67.70   89.143   89.144   89.144   89.144
    67.80   89.130   89.130   89.130   89.130
    67.90   89.116   89.117   89.117   89.117
    68.00   89.103   89.103   89.103   89.103
    68.10   89.089   89.090   89.090   89.090
    68.20   89.076   89.076   89.076   89.076
    68.30   89.063   89.063   89.063   89.063
    68.40   89.049   89.049   89.049   89.049
    68.50   89.036   89.036   89.036   89.036
    68.60   89.022   89.022   89.022   89.022
    68.70   89.009   89.009   89.009   89.009
    68.80   88.995   88.995   88.995   88.995
    68.90   88.982   88.982   88.982   88.982
    69.00   88.968   88.968   88.968   88.968
    69.10   88.955   88.955   88.955   88.955
    69.20   88.941   88.941   88.941   88.941
    69.30   88.927   88.928   88.928   88.928
    69.40   88.914   88.914   88.914   88.914
    69.50   88.900   88.901   88.901   88.901
    69.60   88.887   88.887   88.887   88.887
    69.70   88.873   88.874   88.874   88.874
    69.80   88.860   88.860   88.860   88.860
    69.90   88.846   88.847   88.847   88.847
    70.00   88.832   88.833   88.833   88.833
    70.10   88.819   88.819   88.819   88.819
    70.20   88.805   88.806   88.806   88.806
    70.30   88.792   88.792   88.792   88.792
    70.40   88.778   88.778   88.778   88.779
    70.50   88.764   88.765   88.765   88.765
    70.60   88.751   88.751   88.751   88.751
    70.70   88.737   88.738   88.738   88.738
    70.80   88.724   88.724   88.724   88.724
    70.90   88.710   88.710   88.710   88.710
    71.00   88.697   88.697   88.697   88.697
    71.10   88.683   88.683   88.683   88.683
    71.20   88.669   88.669   88.669   88.669
    71.30   88.655   88.656   88.656   88.656
    71.40   88.642   88.642   88.642   88.642
    71.50   88.628   88.628   88.628   88.628
    71.60   88.614   88.615   88.615   88.615
    71.70   88.601   88.601   88.601   88.601
    71.80   88.587   88.587   88.587   88.587
    71.90   88.573   88.574   88.574   88.574
    72.00   88.560   88.560   88.560   88.560
    72.10   88.546   88.546   88.546   88.546
    72.20   88.532   88.533   88.533   88.533
    72.30   88.519   88.519   88.519   88.519
    72.40   88.505   88.505   88.505   88.505
    72.50   88.491   88.491   88.491   88.492
    72.60   88.478   88.478   88.478   88.478
    72.70   88.464   88.464   88.464   88.464
    72.80   88.450   88.450   88.450   88.450
    72.90   88.436   88.437   88.437   88.437
    73.00   88.423   88.423   88.423   88.423
    73.10   88.409   88.409   88.409   88.409
    73.20   88.395   88.395   88.395   88.395
    73.30   88.382   88.382   88.382   88.382
    73.40   88.368   88.368   88.368   88.368
    73.50   88.354   88.354   88.354   88.354
    73.60   88.340   88.340   88.340   88.340
    73.70   88.327   88.327   88.327   88.327
    73.80   88.313   88.313   88.313   88.313
    73.90   88.299   88.299   88.299   88.299
    74.00   88.286   88.286   88.286   88.286
    74.10   88.272   88.272   88.272   88.272
    74.20   88.258   88.258   88.258   88.258
    74.30   88.244   88.244   88.244   88.244
    74.40   88.231   88.230   88.231   88.231
    74.50   88.217   88.217   88.217   88.217
    74.60   88.203   88.203   88.203   88.203
    74.70   88.189   88.189   88.189   88.189
    74.80   88.176   88.176   88.176   88.176
    74.90   88.162   88.162   88.162   88.162
    75.00   88.148   88.148   88.148   88.148
    75.10   88.134   88.134   88.134   88.134
    75.20   88.120   88.121   88.121   88.121
    75.30   88.107   88.107   88.107   88.107
    75.40   88.093   88.093   88.093   88.093
    75.50   88.079   88.079   88.079   88.079
    75.60   88.066   88.066   88.066   88.066
    75.70   88.052   88.052   88.052   88.052
    75.80   88.038   88.038   88.038   88.038
    75.90   88.024   88.024   88.024   88.024
    76.00   88.011   88.011   88.011   88.011
    76.10   87.997   87.997   87.997   87.997
    76.20   87.983   87.983   87.983   87.983
    76.30   87.969   87.969   87.969   87.969
    76.40   87.956   87.956   87.956   87.956
    76.50   87.942   87.942   87.942   87.942
    76.60   87.928   87.928   87.928   87.928
    76.70   87.915   87.914   87.914   87.914
    76.80   87.901   87.901   87.901   87.901
    76.90   87.887   87.887   87.887   87.887
    77.00   87.873   87.873   87.873   87.873
    77.10   87.860   87.859   87.859   87.859
    77.20   87.846   87.846   87.846   87.846
    77.30   87.832   87.832   87.832   87.832
    77.40   87.818   87.818   87.818   87.818
    77.50   87.805   87.804   87.804   87.804
    77.60   87.791   87.791   87.791   87.791
    77.70   87.777   87.777   87.777   87.777
    77.80   87.763   87.763   87.763   87.763
    77.90   87.750   87.750   87.750   87.750
    78.00   87.736   87.736   87.736   87.736
    78.10   87.722   87.722   87.722   87.722
    78.20   87.709   87.709   87.708   87.708
    78.30   87.695   87.695   87.695   87.695
    78.40   87.681   87.681   87.681   87.681
    78.50   87.668   87.667   87.667   87.667
    78.60   87.654   87.654   87.654   87.654
    78.70   87.640   87.640   87.640   87.640
    78.80   87.626   87.626   87.626   87.626
    78.90   87.613   87.613   87.613   87.613
    79.00   87.599   87.599   87.599   87.599
    79.10   87.586   87.585   87.585   87.585
    79.20   87.572   87.572   87.572   87.572
    79.30   87.558   87.558   87.558   87.558
    79.40   87.545   87.544   87.544   87.544
    79.50   87.531   87.531   87.531   87.531
    79.60   87.517   87.517   87.517   87.517
    79.70   87.504   87.503   87.503   87.503
    79.80   87.490   87.490   87.490   87.490
    79.90   87.476   87.476   87.476   87.476
    80.00   87.463   87.462   87.462   87.462
    80.10   87.449   87.449   87.449   87.449
    80.20   87.435   87.435   87.435   87.435
    80.30   87.422   87.422   87.422   87.422
    80.40   87.408   87.408   87.408   87.408
    80.50   87.395   87.394   87.394   87.394
    80.60   87.381   87.381   87.381   87.381
    80.70   87.368   87.367   87.367   87.367
    80.80   87.354   87.354   87.354   87.354
    80.90   87.340   87.340   87.340   87.340
    81.00   87.327   87.327   87.326   87.326
    81.10   87.313   87.313   87.313   87.313
    81.20   87.300   87.299   87.299   87.299
    81.30   87.286   87.286   87.286   87.286
    81.40   87.273   87.272   87.272   87.272
    81.50   87.259   87.259   87.259   87.259
    81.60   87.246   87.245   87.245   87.245
    81.70   87.232   87.232   87.232   87.232
    81.80   87.219   87.218   87.218   87.218
    81.90   87.205   87.205   87.205   87.205
    82.00   87.192   87.191   87.191   87.191
    82.10   87.178   87.178   87.178   87.178
    82.20   87.165   87.164   87.164   87.164
    82.30   87.151   87.151   87.151   87.151
    82.40   87.138   87.137   87.137   87.137
    82.50   87.125   87.124   87.124   87.124
    82.60   87.111   87.111   87.110   87.110
    82.70   87.098   87.097   87.097   87.097
    82.80   87.085   87.084   87.084   87.084
    82.90   87.071   87.070   87.070   87.070
    83.00   87.058   87.057   87.057   87.057
    83.10   87.045   87.044   87.044   87.043
    83.20   87.031   87.030   87.030   87.030
    83.30   87.018   87.017   87.017   87.017
    83.40   87.005   87.004   87.004   87.004
    83.50   86.992   86.990   86.990   86.990
    83.60   86.978   86.977   86.977   86.977
    83.70   86.965   86.964   86.964   86.964
    83.80   86.952   86.951   86.951   86.950
    83.90   86.939   86.938   86.937   86.937
    84.00   86.928   86.924   86.924   86.924
    84.10   86.949   86.911   86.911   86.911
    84.20   86.940   86.898   86.898   86.898
    84.30   86.929   86.885   86.885   86.885
    84.40   86.941   86.872   86.872   86.872
    84.50   86.930   86.859   86.859   86.858
    84.60   86.917   86.846   86.846   86.845
    84.70   86.904   86.833   86.833   86.832
    84.80   86.892   86.820   86.820   86.820
    84.90   86.880   86.808   86.807   86.807
    85.00   86.867   86.799   86.794   86.794
    85.10   86.855   86.854   86.781   86.781
    85.20   86.843   86.849   86.769   86.768
    85.30   86.832   86.840   86.756   86.756
    85.40   86.820   86.878   86.745   86.743
    85.50   86.809   86.869   86.741   86.731
    85.60   86.799   86.857   86.865   86.720
    85.70   86.789   86.845   86.866   86.716
    85.80   86.779   86.834   86.862   86.769
    85.90   86.771   86.822   86.950   86.995
    86.00   86.763   86.810   86.945   86.994
    86.10   86.759   86.799   86.934   87.145
    86.20   86.761   86.789   86.922   87.181
    86.30   86.765   86.778   86.911   87.066
    86.40   86.787   86.768   86.898   86.859
    86.50   86.844   86.759   86.876   86.837
    86.60   87.034   86.751   86.729   86.647
    86.70   88.047   86.743   86.710   86.597
    86.80   88.221   86.737   86.690   86.585
    86.90   88.274   86.733   86.585   86.577
    87.00   88.295   86.726   86.573   86.569
    87.10   88.301   86.663   86.569   86.563
    87.20   88.301   86.671   86.566   86.559
    87.30   88.297   86.690   86.566   86.556
    87.40   88.290   86.697   86.570   86.557
    87.50   88.282   86.818   86.580   86.562
    87.60   88.273   87.211   86.600   86.572
    87.70   88.262   89.249   86.636   86.591
    87.80   88.251   89.609   86.700   86.623
    87.90   88.240   89.727   86.823   86.676
    88.00   88.224   89.779   87.096   86.769
    88.10   88.177   89.803   87.995   86.938
    88.20   88.161   89.814   92.035   87.287
    88.30   88.142   89.816   92.677   88.204
    88.40   88.098   89.813   92.891   95.317
    88.50   88.063   89.806   92.977   98.169
    88.60   87.889   89.795   93.002   98.665
    88.70   87.988   89.782   92.982   98.558
    88.80   88.035   89.766   92.915   97.658
    88.90   88.036   89.746   92.771   90.141
    89.00   88.027   89.722   92.441   87.660
    89.10   88.016   89.692   91.228   87.016
    89.20   88.004   89.652   87.361   86.725
    89.30   87.990   89.594   86.802   86.563
    89.40   87.976   89.500   86.576   86.461
    89.50   87.962   89.308   86.453   86.389
    89.60   87.946   88.568   86.374   86.336
    89.70   87.931   86.727   86.318   86.294
    89.80   87.913   86.461   86.276   86.259
    89.90   87.895   86.344   86.241   86.230
    90.00   87.875   86.276   86.212   86.204
    90.10   87.852   86.229   86.187   86.181
    90.20   87.825   86.194   86.164   86.159
    90.30   87.788   86.165   86.143   86.139
    90.40   87.734   86.140   86.124   86.121
    90.50   87.630   86.118   86.105   86.103
    90.60   87.253   86.098   86.088   86.086
    90.70   86.326   86.079   86.071   86.070
    90.80   86.186   86.061   86.055   86.054
    90.90   86.121   86.044   86.039   86.038
    91.00   86.080   86.028   86.024   86.023
    91.10   86.049   86.012   86.009   86.008
    91.20   86.025   85.997   85.994   85.993
    91.30   86.003   85.982   85.980   85.979
    91.40   85.985   85.967   85.965   85.965
    91.50   85.967   85.953   85.951   85.951
    91.60   85.950   85.939   85.937   85.937
    91.70   85.934   85.925   85.923   85.923
    91.80   85.919   85.911   85.910   85.909
    91.90   85.904   85.897   85.896   85.896
    92.00   85.889   85.883   85.882   85.882
    92.10   85.875   85.870   85.869   85.869
    92.20   85.861   85.856   85.855   85.855
    92.30   85.847   85.843   85.842   85.842
    92.40   85.833   85.829   85.829   85.829
    92.50   85.819   85.816   85.816   85.815
    92.60   85.806   85.803   85.802   85.802
    92.70   85.792   85.790   85.789   85.789
    92.80   85.779   85.777   85.776   85.776
    92.90   85.766   85.764   85.763   85.763
    93.00   85.752   85.750   85.750   85.750
    93.10   85.740   85.738   85.737   85.737
    93.20   85.726   85.725   85.724   85.724
    93.30   85.713   85.712   85.711   85.711
    93.40   85.696   85.699   85.698   85.698
    93.50   85.679   85.686   85.686   85.686
    93.60   85.662   85.673   85.673   85.673
    93.70   85.645   85.660   85.660   85.660
    93.80   85.628   85.648   85.647   85.647
    93.90   85.611   85.635   85.635   85.634
    94.00   85.594   85.622   85.622   85.622
    94.10   85.577   85.609   85.609   85.609
    94.20   85.560   85.597   85.596   85.596
    94.30   85.544   85.583   85.584   85.584
    94.40   85.527   85.563   85.571   85.571
    94.50   85.510   85.542   85.559   85.558
    94.60   85.493   85.521   85.546   85.546
    94.70   85.476   85.501   85.533   85.533
    94.80   85.459   85.480   85.517   85.521
    94.90   85.441   85.459   85.489   85.508
    95.00   85.424   85.438   85.461   85.496
    95.10   85.407   85.417   85.432   85.459
    95.20   85.390   85.396   85.403   85.415
    95.30   85.374   85.375   85.375   85.371
    95.40   85.357   85.354   85.346   85.326
    95.50   85.339   85.333   85.317   85.281
    95.60   85.322   85.312   85.287   85.262
    95.70   85.305   85.291   85.258   85.248
    95.80   85.288   85.269   85.234   85.234
    95.90   85.270   85.248   85.221   85.221
    96.00   85.253   85.227   85.207   85.207
    96.10   85.236   85.205   85.193   85.193
    96.20   85.218   85.183   85.179   85.179
    96.30   85.200   85.165   85.165   85.165
    96.40   85.183   85.151   85.151   85.152
    96.50   85.165   85.137   85.138   85.138
    96.60   85.148   85.123   85.124   85.124
    96.70   85.130   85.109   85.110   85.110
    96.80   85.112   85.095   85.096   85.096
    96.90   85.095   85.082   85.082   85.082
    97.00   85.077   85.068   85.068   85.068
    97.10   85.059   85.054   85.054   85.054
    97.20   85.041   85.039   85.040   85.040
    97.30   85.025   85.025   85.026   85.026
    97.40   85.011   85.011   85.011   85.011
    97.50   84.997   84.997   84.997   84.997
    97.60   84.983   84.983   84.983   84.983
    97.70   84.969   84.969   84.969   84.969
    97.80   84.955   84.955   84.955   84.955
    97.90   84.940   84.941   84.941   84.941
    98.00   84.926   84.927   84.927   84.927
    98.10   84.912   84.913   84.913   84.913
    98.20   84.898   84.899   84.899   84.899
    98.30   84.884   84.885   84.885   84.885
    98.40   84.869   84.871   84.871   84.871
    98.50   84.855   84.856   84.857   84.857
    98.60   84.841   84.842   84.843   84.843
    98.70   84.827   84.828   84.829   84.829
    98.80   84.812   84.814   84.814   84.815
    98.90   84.798   84.799   84.800   84.800
    99.00   84.784   84.785   84.786   84.786
    99.10   84.769   84.771   84.771   84.772
    99.20   84.755   84.756   84.757   84.757
    99.30   84.740   84.742   84.742   84.742
    99.40   84.726   84.727   84.728   84.728
    99.50   84.711   84.713   84.713   84.713
    99.60   84.697   84.698   84.698   84.698
    99.70   84.682   84.684   84.684   84.684
    99.80   84.668   84.669   84.669   84.669
    99.90   84.653   84.655   84.655   84.655
   100.00   84.638   84.640   84.640   84.640
   100.10   84.624   84.625   84.625   84.625
   100.20   84.609   84.611   84.611   84.611
   100.30   84.594   84.596   84.596   84.596
   100.40   84.579   84.581   84.581   84.581
   100.50   84.564   84.566   84.567   84.567
   100.60   84.549   84.551   84.552   84.552
   100.70   84.534   84.537   84.537   84.538
   100.80   84.519   84.522   84.523   84.523
   100.90   84.504   84.507   84.508   84.508
   101.00   84.489   84.491   84.493   84.493
   101.10   84.474   84.476   84.477   84.478
   101.20   84.459   84.461   84.462   84.463
   101.30   84.443   84.446   84.447   84.447
   101.40   84.428   84.431   84.432   84.432
   101.50   84.412   84.415   84.416   84.416
   101.60   84.397   84.400   84.400   84.400
   101.70   84.382   84.385   84.385   84.385
   101.80   84.366   84.369   84.369   84.369
   101.90   84.350   84.354   84.354   84.354
   102.00   84.335   84.338   84.338   84.338
   102.10   84.319   84.322   84.323   84.323
   102.20   84.303   84.307   84.307   84.307
   102.30   84.287   84.291   84.292   84.292
   102.40   84.271   84.275   84.276   84.276
   102.50   84.255   84.259   84.260   84.260
   102.60   84.239   84.243   84.244   84.245
   102.70   84.223   84.227   84.228   84.229
   102.80   84.207   84.211   84.212   84.213
   102.90   84.190   84.194   84.196   84.197
   103.00   84.174   84.178   84.180   84.180
   103.10   84.157   84.162   84.163   84.164
